Time	Charge	Current	CapacitorEnergy	InductorEnergy	TotalEnergy	DissipatedPower
0	0	0	0	0	0	0
0.000725452268724662	1.91091125000635e-06	0.00804434894218349	1.82579090270041e-09	3.23557749518043e-06	3.23740328608313e-06	0.000647115499036087
0.00145090453744932	1.52329212778029e-05	0.0309212026573715	1.1602094532787e-07	4.78060386889118e-05	4.79220596342397e-05	0.00956120773778236
0.00217635680617399	4.98654293733505e-05	0.0662775654425575	1.24328052329431e-06	0.000219635784049624	0.000220879064572919	0.0439271568099249
0.00290180907489865	0.000113728481324336	0.111135500213452	6.46708373216995e-06	0.000617554970384705	0.000624022054116875	0.123510994076941
0.00362726134362331	0.000212558278453983	0.162002733812683	2.25905108696605e-05	0.00131224428813915	0.00133483479900881	0.262448857627829
0.00435271361234797	0.000349311329554402	0.215073703286395	6.10092024775319e-05	0.00231283489226621	0.00237384409474374	0.462566978453242
0.00507816588107263	0.000524203078492736	0.266520027144456	0.000137394433750631	0.00355164624345408	0.00368904067720471	0.710329248690817
0.00580361814979729	0.00073471490513991	0.312630918996534	0.000269902995917374	0.00488690457563087	0.00515680757154824	0.977380915126174
0.00690684363037999	0.00111138205147858	0.36490821146319	0.000617585032174364	0.00665790013966322	0.00727548517183758	1.33158002793264
0.00801006911096269	0.00152912355119769	0.387160752452344	0.00116910941741372	0.00749467241197326	0.00866378182938699	1.49893448239465
0.00911329459154539	0.00195165148470285	0.373539727084683	0.00190447175887142	0.00697659638552498	0.00888106814439639	1.395319277105
0.0102165200721281	0.00233920433478099	0.322638550462916	0.00273593845992909	0.00520478171224058	0.00794072017216967	1.04095634244812
0.0113197455527108	0.0026513502101318	0.237480625955533	0.00351482896838298	0.00281985238521158	0.00633468135359456	0.563970477042317
0.0124229710332935	0.00285373996645041	0.125960459094556	0.00407191589805819	0.000793301862765571	0.00486521776082376	0.158660372553114
0.0135261965138762	0.00292317600714059	-0.00116195807893632	0.00427247898436121	6.75073288602692e-08	0.00427254649169007	1.35014657720538e-05
0.0146294219944589	0.00284985406672303	-0.131088965248463	0.00406083410080889	0.000859215840495631	0.00492004994130452	0.171843168099126
0.0158296891420616	0.00261252343886995	-0.25950711854658	0.00341263935932244	0.00336719722881744	0.00677983658813989	0.673439445763488
0.0170299562896643	0.00223818442461151	-0.358663274283016	0.00250473475928678	0.00643196721597069	0.00893670197525746	1.28639344319414
0.018230223437267	0.00176910492508811	-0.416543164953187	0.0015648661179855	0.00867541041346088	0.0102402765314464	1.73508208269218
0.0194304905848697	0.00125797141796301	-0.426566459472595	0.000791246044205931	0.00909794721734926	0.00988919326155519	1.81958944346985
0.0205905824093486	0.00077951067215027	-0.390032371572052	0.000303818443998083	0.00760626254370595	0.00791008098770403	1.52125250874119
0.0217506742338275	0.000367823683130725	-0.314037846122423	6.76471309359259e-05	0.00493098843986055	0.00499863557079647	0.986197687972109
0.0229107660583064	6.28150263794558e-05	-0.208892925949645	1.97286376952587e-06	0.00218181272559019	0.00218378558935971	0.436362545118037
0.0240708578827853	-0.000110370069908066	-0.0884252504665349	6.09077616575566e-06	0.000390951246003471	0.000397042022169227	0.0781902492006943
0.0250860298940746	-0.000145964967387945	0.0168274797886988	1.06528858522819e-05	1.41582038019533e-05	2.48110896542352e-05	0.00283164076039065
0.026101201905364	-7.99474576566926e-05	0.110722244188517	3.19579799288433e-06	0.000612970767907081	0.000616166565899966	0.122594153581416
0.0271163739166533	7.15235451785109e-05	0.184037610189272	2.55780875745125e-06	0.00169349209820893	0.00169604990696638	0.338698419641786
0.0281315459279427	0.000284206861318642	0.229703449770176	4.03867700102969e-05	0.00263818374181599	0.00267857051182628	0.527636748363198
0.0291365123400795	0.000524938936496556	0.243221374041126	0.000137780443525068	0.00295783183952266	0.00309561228304772	0.591566367904531
0.0301414787522162	0.000762425343716435	0.224321424963912	0.000290646202370562	0.00251600508489201	0.00280665128726257	0.503201016978402
0.031146445164353	0.00096520984817019	0.175217910152411	0.000465815025502361	0.00153506580190892	0.00200088082741128	0.307013160381784
0.0321514115764898	0.00110593719818278	0.101103479801099	0.000611548543162188	0.000511095681394564	0.00112264422455675	0.102219136278913
0.0330902639195611	0.00116186168752702	0.0161295178844662	0.000674961290471571	1.30080673592657e-05	0.000687969357830836	0.00260161347185315
0.0340291162626324	0.00113400382295054	-0.0760135462163256	0.000642982335233217	0.000288902960419074	0.000931885295652291	0.0577805920838147
0.0349679686057037	0.00101948913677146	-0.167060961186427	0.000519679049997507	0.00139546823762664	0.00191514728762414	0.279093647525327
0.035906820948775	0.000823188247334838	-0.248850824982784	0.000338819445275101	0.00309633665473061	0.00343515610000571	0.619267330946121
0.0368080059875531	0.000569082370816987	-0.31156933940701	0.000161927372387341	0.00485377266292602	0.00501570003531337	0.970754532585205
0.0377091910263312	0.000267816513906542	-0.353357057067164	3.58628425605264e-05	0.00624306048895836	0.00627892333151889	1.24861209779167
0.0386103760651093	-6.0129303739018e-05	-0.370557044921387	1.80776658406954e-06	0.00686562617704355	0.00686743394362761	1.37312523540871
0.0395115611038874	-0.000392029353423468	-0.361457948732844	7.68435069728112e-05	0.00653259243510777	0.00660943594208058	1.30651848702155
0.0404127461426655	-0.000703998513271615	-0.326346835309638	0.000247806953344322	0.00532511284583079	0.00557291979917511	1.06502256916616
0.0413139311814437	-0.000973272907053988	-0.267776197014667	0.00047363007580266	0.00358520458438188	0.00405883466018454	0.717040916876376
0.0422151162202218	-0.00118064930990439	-0.190025660326187	0.000696966396488858	0.00180548757912017	0.00250245397560903	0.361097515824034
0.0431163012589999	-0.0013116243864773	-0.0988863960946224	0.000860179265600983	0.000488925966629127	0.00134910523223011	0.0977851933258254
0.0441468719311489	-0.00135609033961777	0.0127870107627278	0.000919490504602316	8.17538221230578e-06	0.000927665886814622	0.00163507644246116
0.0451774426032979	-0.00128625334792881	0.121468769646338	0.000827223837529041	0.000737733099969751	0.00156495693749879	0.14754661999395
0.046208013275447	-0.00111067397960441	0.216427187466451	0.000616798344485146	0.00234203637373191	0.00295883471821705	0.468407274746381
0.047238583947596	-0.00084815891722596	0.288337806077051	0.000359686774434957	0.00415693452066636	0.00451662129510131	0.831386904133271
0.0481403945420191	-0.000568824632145542	0.326500126708605	0.000161780731067755	0.00533011663703675	0.0054918973681045	1.06602332740735
0.0490422051364422	-0.00026700299058846	0.338575738206468	3.56452984915907e-05	0.00573167652510274	0.00576732182359433	1.14633530502055
0.0499440157308653	3.34645696512091e-05	0.323810324962428	5.59938710970313e-07	0.00524265632761366	0.00524321626632463	1.04853126552273
0.0508458263252885	0.000309206101250316	0.283546503412292	4.78042065252103e-05	0.00401993097986685	0.00406773518639206	0.80398619597337
0.0517476369197116	0.000538347679760458	0.221118041637737	0.000144909112151734	0.0024446594168854	0.00258956852903714	0.488931883377081
0.0526494475141347	0.000702996182868415	0.141773068693661	0.000247101816563781	0.00100498015034088	0.00125208196690466	0.200996030068176
0.0535512581085578	0.000790770996626157	0.0518974196042768	0.000312659384552563	0.000134667108079119	0.000447326492631682	0.0269334216158238
0.0544530687029809	0.000795515523511187	-0.0413244331454592	0.000316422474073639	8.53854387396766e-05	0.000401807912813316	0.0170770877479353
0.0555544150670105	0.000689237232466099	-0.148708890773206	0.000237523981308764	0.00110571670974986	0.00134324069105862	0.221143341949972
0.0566557614310401	0.000474855147538831	-0.236729789004492	0.000112743705572063	0.00280204965010556	0.00291479335567762	0.560409930021112
0.0577571077950697	0.000179340304667848	-0.295008297729932	1.60814724391783e-05	0.0043514947864756	0.00436757625891478	0.87029895729512
0.0588584541590992	-0.000161230398611752	-0.316700129010176	1.29976207182523e-05	0.0050149485857531	0.00502794620647135	1.00298971715062
0.0598256201176075	-0.000463709156385619	-0.303179134920125	0.000107513090857931	0.00459587939254577	0.0047033924834037	0.919175878509155
0.0607927860761158	-0.000738451548287087	-0.26053091277842	0.000272655344583798	0.00339381782565783	0.00366647317024163	0.678763565131567
0.0617599520346241	-0.000959159582797112	-0.192613406165576	0.000459993552635765	0.00185499621173526	0.00231498976437102	0.370999242347051
0.0627271179931323	-0.00110465270720956	-0.105571173109732	0.000610128801772708	0.000557263629588254	0.00116739243136096	0.111452725917651
0.0636892184133661	-0.00115974564369121	-0.00796139516160223	0.000672504979030366	3.16919064595917e-06	0.000675674169676325	0.000633838129191834
0.0646513188335998	-0.00111934428507613	0.0915902534795616	0.000626465814266294	0.000419438726622517	0.00104590454088881	0.0838877453245034
0.0656134192538336	-0.000985857014264252	0.184126380456369	0.000485957026287012	0.00169512619899818	0.00218108322528519	0.339025239799636
0.0665755196740674	-0.000769983447421655	0.261331730588275	0.000296437254651668	0.00341471367061315	0.00371115092526482	0.68294273412263
0.0674730788488228	-0.000510317339671288	0.313145438174206	0.00013021189358459	0.00490300327246577	0.00503321516605036	0.980600654493153
0.0683706380235782	-0.000214854287271337	0.341197842188441	2.3081182379437e-05	0.00582079837570241	0.00584387955808185	1.16415967514048
0.0692681971983336	9.40992920051015e-05	0.343245652849257	4.42733837793068e-06	0.00589087890999565	0.00589530624837358	1.17817578199913
0.070165756373089	0.000393322861946258	0.319076296005371	7.73514368647974e-05	0.00509048413362535	0.00516783557049015	1.01809682672507
0.0710633155478445	0.000659741605970613	0.270482535785959	0.000217629493324342	0.00365804010826013	0.00387566960158447	0.731608021652026
0.0719608747225999	0.000872806617941557	0.201359689743712	0.00038089569616129	0.0020272862326842	0.00240818192884549	0.40545724653684
0.0728584338973553	0.00101649328977787	0.117051724226758	0.000516629304081717	0.000685055307222848	0.00120168461130456	0.13701106144457
0.0737559930721107	0.00108023388178791	0.0240755037716395	0.000583452619681289	2.89814940929115e-05	0.0006124341137742	0.00579629881858229
0.0747932040769571	0.00104828638753522	-0.0845713120171114	0.00054945217514582	0.000357615340814781	0.000907067515960601	0.0715230681629562
0.0758304150818035	0.000908071400036072	-0.183476695596037	0.000412296833781736	0.00168318489134204	0.00209548172512377	0.336636978268407
0.0768676260866498	0.000674914747020813	-0.262463096502093	0.000227754957873084	0.00344434385127334	0.00367209880914642	0.688868770254668
0.0779048370914962	0.000373436192839059	-0.313445799335502	6.97272950610653e-05	0.00491241345605361	0.00498214075111467	0.982482691210721
0.0789504856621234	3.29932471677738e-05	-0.330907357430195	5.44277179336907e-07	0.00547498396007173	0.00547552823725107	1.09499679201435
0.0799961342327505	-0.000306428700245596	-0.312670197324587	4.69492741671027e-05	0.00488813261474981	0.00493508188891691	0.977626522949961
0.0810417828033777	-0.000608550671497352	-0.260733057538008	0.000185166959889939	0.0033990863646559	0.00358425332454584	0.67981727293118
0.0820874313740049	-0.000841518889169502	-0.180634029925079	0.000354077020414537	0.00163143263834873	0.00198550965876326	0.326286527669745
0.0830026798524794	-0.000968167843270088	-0.0941697061631883	0.000468674486371126	0.000443396677943061	0.000912071164314188	0.0886793355886122
0.083917928330954	-0.00101156704939528	3.72171380547126e-07	0.000511633947711132	6.92557682491769e-15	0.000511633947718058	1.38511536498354e-12
0.0848331768094285	-0.000968163938597037	0.0941900359327413	0.000468670705999864	0.000443588143450555	0.000912258849450419	0.0887176286901109
0.0857484252879031	-0.000841464411484468	0.180731777472912	0.000354031177897451	0.00163319876942592	0.00198722994732337	0.326639753885183
0.0866538611185307	-0.000644158342100711	0.251707430609401	0.000207469984848968	0.00316783153119932	0.00337530151604828	0.633566306239863
0.0875592969491582	-0.000391695251703	0.302346141085166	7.67125851033384e-05	0.00457065945145455	0.00464737203655789	0.91413189029091
0.0884647327797858	-0.000104292783669173	0.328597338039962	5.43849236273251e-06	0.00539881052834746	0.00540424902071019	1.07976210566949
0.0893701686104134	0.000195220688064958	0.328357706763291	1.90555585242778e-05	0.00539093917954238	0.00540999473806666	1.07818783590848
0.090275604441041	0.000482512630033298	0.301542695045748	0.000116409219070825	0.00454639984677266	0.00466280906584349	0.909279969354532
0.0911810402716686	0.000734032699406513	0.250396880475664	0.000269402001899006	0.00313492988759721	0.00340433188949621	0.626985977519442
0.0920864761022962	0.000929595351975906	0.17897340239271	0.000432073759207604	0.00160157393820115	0.00203364769740876	0.32031478764023
0.0929919119329238	0.0010535851657867	0.0929284897915557	0.000555020850782897	0.000431785210746963	0.00098680606152986	0.0863570421493926
0.0939682556213495	0.00109517878548441	-0.00825900472341198	0.000599708286087558	3.41055795106707e-06	0.000603118844038625	0.000682111590213414
0.0949445993097752	0.00103765493191786	-0.108776716884609	0.00053836387886673	0.000591618706809721	0.00112998258567645	0.118323741361944
0.0959209429982009	0.000886151057629868	-0.199363402650813	0.000392631848469267	0.00198728831582552	0.00237992016429479	0.397457663165104
0.0968972866866266	0.000654343399274731	-0.271693371866968	0.000214082642087205	0.00369086441582212	0.00390494705790933	0.738172883164425
0.0977986882515561	0.000387378300082347	-0.316233437746831	7.50309736873445e-05	0.00500017935745895	0.0050752103311463	1.00003587149179
0.0987000898164857	9.16374248919837e-05	-0.335772724936047	4.19870882041697e-06	0.0056371661405489	0.00564136484936932	1.12743322810978
0.0996014913814153	-0.000209675213966961	-0.328769788445401	2.19818476760454e-05	0.00540447868972168	0.00542646053739773	1.08089573794434
0.100502892946345	-0.000493106443505301	-0.295773294340997	0.000121576982313223	0.00437409208226631	0.00449566906457954	0.874818416453263
0.101404294511274	-0.000736014545003869	-0.239356485755186	0.000270858705228626	0.00286457636365363	0.00313543506888226	0.572915272730727
0.102305696076204	-0.000919038215315926	-0.164129963032572	0.000422315620605541	0.00134693223825367	0.00176924785885921	0.269386447650734
0.103207097641134	-0.00102789110929151	-0.0760162788788351	0.000528280066280267	0.000288923732729242	0.000817203799009508	0.0577847465458483
0.104108499206063	-0.00105419764841457	0.0180616572940544	0.0005556663409614	1.63111732103934e-05	0.000571977514171794	0.00326223464207869
0.105175684320905	-0.000975811619169341	0.126833163082854	0.000476104158052946	0.000804332562880089	0.00128043672093303	0.160866512576018
0.106242869435747	-0.000788498514280165	0.221116981380138	0.000310864953511014	0.00244463597273321	0.00275550092624422	0.488927194546641
0.107310054550589	-0.000513168518446993	0.290581828409314	0.000131670964162541	0.00422188995008499	0.00435356091424753	0.844377990016998
0.108377239665431	-0.000180022624197762	0.327650881864799	1.62040726115244e-05	0.00536775501933902	0.00538395909195055	1.0735510038678
0.109381831805981	0.000152934705157869	0.328981363308225	1.16945120208621e-05	0.00541143687020693	0.00542313138222779	1.08228737404139
0.110386423946531	0.000470271334427146	0.297744412712366	0.000110577563991944	0.00443258676507158	0.00454316432906352	0.886517353014315
0.111391016087081	0.000740813206574925	0.236999247246196	0.000274402103517911	0.00280843215976318	0.00308283426328109	0.561686431952636
0.112395608227631	0.000938269569718482	0.152669769927401	0.000440174892729853	0.00116540293248427	0.00160557782521413	0.233080586496855
0.113322515418194	0.00103806634025559	0.0611558191554061	0.000538790863385819	0.000187001710828437	0.000725792574214256	0.0374003421656874
0.114249422608757	0.00105007095798899	-0.0354731042694326	0.00055132450840596	6.29170563255018e-05	0.000614241564731462	0.0125834112651003
0.11517632979932	0.000973253315215946	-0.129162491272771	0.000473611007789415	0.000834147457589428	0.00130775846537884	0.166829491517886
0.116103236989883	0.00081393838494336	-0.212120999287838	0.000331247847242103	0.00224976591694355	0.00258101376418566	0.449953183388711
0.116995927441687	0.000594792312591797	-0.275211434442191	0.000176888947559149	0.00378706668238643	0.00396395562994558	0.757413336477287
0.117888617893492	0.000328885181015808	-0.316795544994328	5.40827311459006e-05	0.00501797086641265	0.00507205359755855	1.00359417328253
0.118781308345296	3.68252082602147e-05	-0.333651857077136	6.78047981704093e-07	0.0055661780865511	0.0055668561345328	1.11323561731022
0.1196739987971	-0.000258930371762109	-0.324474608713031	3.3522468710432e-05	0.00526418858497374	0.00529771105368417	1.05283771699475
0.120566689248904	-0.000535117276874483	-0.289904546492712	0.000143175250004781	0.00420223230385724	0.00434540755386202	0.840446460771448
0.121459379700709	-0.00076988383324411	-0.23274169704336	0.000296360558345322	0.00270843487713117	0.00300479543547649	0.541686975426234
0.122352070152513	-0.000945040464697796	-0.157401587255932	0.000446550739958114	0.00123876298353434	0.00168531372349245	0.247752596706868
0.123244760604317	-0.00104711160456222	-0.0696938572169541	0.00054822135620443	0.00024286168668886	0.00079108304289329	0.0485723373377719
0.124237310189558	-0.00106486891458652	0.033961315105408	0.000566972902626338	5.76685461844406e-05	0.000624641448810779	0.0115337092368881
0.125229859774799	-0.000980776139123403	0.134230051626412	0.000480960917536904	0.000900885337981457	0.00138184625551836	0.180177067596291
0.12622240936004	-0.000802887186050782	0.221569526921787	0.000322313916762271	0.00245465276301724	0.00277696667977951	0.490930552603447
0.127214958945282	-0.000548025481857701	0.287691310859272	0.000150165964382683	0.0041383145171963	0.00428848048157898	0.82766290343926
0.128332786875251	-0.000199274440186161	0.328670882440675	1.98551512557539e-05	0.00540122744821659	0.00542108259947234	1.08024548964332
0.12945061480522	0.000172267429429943	0.329601918992871	1.48380336212003e-05	0.00543187125018915	0.00544670928381035	1.08637425003783
0.130568442735189	0.000521769795530531	0.290373338254727	0.000136121859763986	0.00421583377845969	0.00435195563822368	0.843166755691939
0.131686270665159	0.00080769353222053	0.215695852298344	0.000326184420995438	0.00232623503493545	0.00265241945593089	0.46524700698709
0.132591211333353	0.000967678294111463	0.13541896023452	0.000468200640447235	0.00091691473954992	0.00138511537999716	0.183382947909984
0.133496152001546	0.00104957704555478	0.0443909969146773	0.000550805987277753	9.85280303539447e-05	0.000649334017631697	0.0197056060707889
0.13440109266974	0.00104692021880606	-0.050158088080941	0.00054802097227246	0.000125791689996772	0.000673812662269231	0.0251583379993543
0.135306033337934	0.000959955429431875	-0.140735123100551	0.000460757213247868	0.000990318743706358	0.00145107595695423	0.198063748741272
0.136224387464745	0.000792480888403505	-0.221026986345304	0.000314012979242404	0.00244264643464435	0.00275665941388676	0.488529286928871
0.137142741591555	0.000559517574388426	-0.282961443876445	0.000156529958024754	0.00400335893603213	0.00415988889405689	0.800671787206426
0.138061095718366	0.000280216781424909	-0.321476771335149	3.92607222960677e-05	0.00516736572540359	0.00520662644769965	1.03347314508072
0.138979449845176	-2.26770315248472e-05	-0.333434060403917	2.57123879389457e-07	0.00555891363187216	0.00555917075575155	1.11178272637443
